#Parameters = {L=3.2; L_min=3.2; Nx=4; Ny=12; a=5.2011880517973; bend_r=0.15; cl1=0.5375; cl2=2.075; cl3=2.0375; cl4=0.3625; cl5=0; cl6=0; cl7=0; cl8=0; cu=0.018; d=1.8; db_l=0.4; db_neck_l=1.536; db_w=1.05; eps_r=3.55; f0=27; f_W=1; f_c=28; fmax=32; fmin=22; gap_x=0.34025976432583; gap_y=0.2; grid_g=0.00027083493387229; grid_l=0.87497230754204; grid_w=0.43313893313808; h1=0.75870462188591; h2=0.25727377777767; l_1=0.8210294834306; l_2=0.24630884502918; l_3=0; l_4=0; l_5=0.24630884502918; l_6=0.73892653508754; l_7=0; l_8=0; line_gap=0.25; m_l=0.70382246122097; m_w=0.41568172580541; mic_w=0.16420589668612; mu_r=1; pitch_x=1.2152320718679; pitch_y=0.43340976807195; rx_slot1=-1.8; rx_slot2=1.8; s_center=0.24630884502918; sigma_cu=58000000; slot_dumbbell_l=0.2; slot_dumbbell_w=0.604; slot_end_r=0.15; slot_l=2.336; slot_w=0.5; tanD=0.0027; total_stack_h=2.1219567993272; total_x=4.5206685231456; total_y=5.2006463819296; ttdA_x0=-1.8; ttdA_x1=-2.3375; ttdA_x2=-2.3375; ttdA_x3=-0.3; ttdA_x4=-0.3; ttdA_y0=0; ttdA_y1=0; ttdA_y2=-2.075; ttdA_y3=-2.075; ttdA_y4=-1.7125; ttdA_z=1.0609783996636; ttd_w=0.16420589668612; ttd_x1=-1.8; ttd_x2=-1.8; ttd_x3=0.275; ttd_x4=0.275; ttd_x5=-0.0875; ttd_xc=-1.8; ttd_y1=-1.168; ttd_y2=-0.6305; ttd_y3=-0.6305; ttd_y4=1.407; ttd_y5=1.407; ttd_yc=0; ttd_zmax=1.0699783996636; ttd_zmid=1.0609783996636; ttd_zmin=1.0519783996636; tx_Nx=12; tx_Ny=4; tx_gap_y=0.34025976432583; tx_pitch_x=0.43340976807195; tx_pitch_y=1.2152320718679; tx_slot1=-1.8; tx_slot2=1.8; x_last_max=2.4304641437357; x_start=-2.4304641437357; y_start=-2.6003231909648; z_L1=0; z_L10=2.1219567993272; z_L2=0.018; z_L3=0.77670462188591; z_L4=0.79470462188591; z_L5=1.0519783996636; z_L6=1.0699783996636; z_L7=1.3272521774413; z_L8=1.3452521774413; z_L9=2.1039567993272; z_air_bot=-3; z_air_top=5.1219567993272}
#"Frequency / GHz"	"SZmax(1),Zmin(2) (125) [Magnitude / dB]"
#-----------------------------------------------------------
27.000000000000	-0.37169609882084
27.002000000000	-0.37205196186742
27.004000000000	-0.37241192553742
27.006000000000	-0.37277593928500
27.008000000000	-0.37314395271312
27.010000000000	-0.37351591557405
27.012000000000	-0.37389177776984
27.014000000000	-0.37427148935281
27.016000000000	-0.37465500052600
27.018000000000	-0.37504226164364
27.020000000000	-0.37543322321160
27.022000000000	-0.37582783588783
27.024000000000	-0.37622605048278
27.026000000000	-0.37662781795987
27.028000000000	-0.37703308943587
27.030000000000	-0.37744181618130
27.032000000000	-0.37785394962089
27.034000000000	-0.37826944133394
27.036000000000	-0.37868824305468
27.038000000000	-0.37911030667272
27.040000000000	-0.37953558423337
27.042000000000	-0.37996402793802
27.044000000000	-0.38039559014451
27.046000000000	-0.38083022336747
27.048000000000	-0.38126788027868
27.050000000000	-0.38170851370736
27.052000000000	-0.38215207664058
27.054000000000	-0.38259852222352
27.056000000000	-0.38304780375979
27.058000000000	-0.38349987471177
27.060000000000	-0.38395468870091
27.062000000000	-0.38441219950798
27.064000000000	-0.38487236107343
27.066000000000	-0.38533512749759
27.068000000000	-0.38580045304103
27.070000000000	-0.38626829212477
27.072000000000	-0.38673859933055
27.074000000000	-0.38721132940111
27.076000000000	-0.38768643724042
27.078000000000	-0.38816387791395
27.080000000000	-0.38864360664886
27.082000000000	-0.38912557883426
27.084000000000	-0.38960975002145
27.086000000000	-0.39009607592410
27.088000000000	-0.39058451241851
27.090000000000	-0.39107501554375
27.092000000000	-0.39156754150194
27.094000000000	-0.39206204665839
27.096000000000	-0.39255848754178
27.098000000000	-0.39305682084441
27.100000000000	-0.39355700342229
27.102000000000	-0.39405899229540
27.104000000000	-0.39456274464777
27.106000000000	-0.39506821782772
27.108000000000	-0.39557536934795
27.110000000000	-0.39608415688573
27.112000000000	-0.39659453828303
27.114000000000	-0.39710647154667
27.116000000000	-0.39761991484843
27.118000000000	-0.39813482652520
27.120000000000	-0.39865116507910
27.122000000000	-0.39916888917759
27.124000000000	-0.39968795765360
27.126000000000	-0.40020832950562
27.128000000000	-0.40072996389781
27.130000000000	-0.40125282016011
27.132000000000	-0.40177685778832
27.134000000000	-0.40230203644418
27.136000000000	-0.40282831595548
27.138000000000	-0.40335565631613
27.140000000000	-0.40388401768624
27.142000000000	-0.40441336039216
27.144000000000	-0.40494364492659
27.146000000000	-0.40547483194861
27.148000000000	-0.40600688228377
27.150000000000	-0.40653975692410
27.152000000000	-0.40707341702819
27.154000000000	-0.40760782392124
27.156000000000	-0.40814293909507
27.158000000000	-0.40867872420818
27.160000000000	-0.40921514108577
27.162000000000	-0.40975215171980
27.164000000000	-0.41028971826896
27.166000000000	-0.41082780305873
27.168000000000	-0.41136636858140
27.170000000000	-0.41190537749606
27.172000000000	-0.41244479262862
27.174000000000	-0.41298457697182
27.176000000000	-0.41352469368522
27.178000000000	-0.41406510609522
27.180000000000	-0.41460577769503
27.182000000000	-0.41514667214468
27.184000000000	-0.41568775327100
27.186000000000	-0.41622898506760
27.188000000000	-0.41677033169486
27.190000000000	-0.41731175747993
27.192000000000	-0.41785322691663
27.194000000000	-0.41839470466553
27.196000000000	-0.41893615555381
27.198000000000	-0.41947754457531
27.200000000000	-0.42001883689045
27.202000000000	-0.42055999782620
27.204000000000	-0.42110099287604
27.206000000000	-0.42164178769989
27.208000000000	-0.42218234812411
27.210000000000	-0.42272264014139
27.212000000000	-0.42326262991075
27.214000000000	-0.42380228375744
27.216000000000	-0.42434156817291
27.218000000000	-0.42488044981471
27.220000000000	-0.42541889550647
27.222000000000	-0.42595687223782
27.224000000000	-0.42649434716430
27.226000000000	-0.42703128760728
27.228000000000	-0.42756766105395
27.230000000000	-0.42810343515715
27.232000000000	-0.42863857773537
27.234000000000	-0.42917305677263
27.236000000000	-0.42970684041840
27.238000000000	-0.43023989698751
27.240000000000	-0.43077219496008
27.242000000000	-0.43130370298140
27.244000000000	-0.43183438986190
27.246000000000	-0.43236422457696
27.248000000000	-0.43289317626689
27.250000000000	-0.43342121423681
27.252000000000	-0.43394830795654
27.254000000000	-0.43447442706052
27.256000000000	-0.43499954134768
27.258000000000	-0.43552362078136
27.260000000000	-0.43604663548919
27.262000000000	-0.43656855576295
27.264000000000	-0.43708935205855
27.266000000000	-0.43760899499582
27.268000000000	-0.43812745535845
27.270000000000	-0.43864470409387
27.272000000000	-0.43916071231312
27.274000000000	-0.43967545129073
27.276000000000	-0.44018889246464
27.278000000000	-0.44070100743603
27.280000000000	-0.44121176796922
27.282000000000	-0.44172114599155
27.284000000000	-0.44222911359325
27.286000000000	-0.44273564302734
27.288000000000	-0.44324070670945
27.290000000000	-0.44374427721774
27.292000000000	-0.44424632729276
27.294000000000	-0.44474682983731
27.296000000000	-0.44524575791631
27.298000000000	-0.44574308475670
27.300000000000	-0.44623878374725
27.302000000000	-0.44673282843849
27.304000000000	-0.44722519254253
27.306000000000	-0.44771584993293
27.308000000000	-0.44820477464460
27.310000000000	-0.44869194087363
27.312000000000	-0.44917732297716
27.314000000000	-0.44966089547323
27.316000000000	-0.45014263304069
27.318000000000	-0.45062251051900
27.320000000000	-0.45110050290813
27.322000000000	-0.45157658536840
27.324000000000	-0.45205073322035
27.326000000000	-0.45252292194460
27.328000000000	-0.45299312718171
27.330000000000	-0.45346132473202
27.332000000000	-0.45392749055553
27.334000000000	-0.45439160077174
27.336000000000	-0.45485363165952
27.338000000000	-0.45531355965698
27.340000000000	-0.45577136136127
27.342000000000	-0.45622701352851
27.344000000000	-0.45668049307359
27.346000000000	-0.45713177707007
27.348000000000	-0.45758084275000
27.350000000000	-0.45802766750378
27.352000000000	-0.45847222888005
27.354000000000	-0.45891450458549
27.356000000000	-0.45935447248473
27.358000000000	-0.45979211060018
27.360000000000	-0.46022739711188
27.362000000000	-0.46066031035736
27.364000000000	-0.46109082883152
27.366000000000	-0.46151893118644
27.368000000000	-0.46194459623129
27.370000000000	-0.46236780293214
27.372000000000	-0.46278853041184
27.374000000000	-0.46320675794988
27.376000000000	-0.46362246498222
27.378000000000	-0.46403563110118
27.380000000000	-0.46444623605530
27.382000000000	-0.46485425974915
27.384000000000	-0.46525968224325
27.386000000000	-0.46566248375389
27.388000000000	-0.46606264465300
27.390000000000	-0.46646014546800
27.392000000000	-0.46685496688170
27.394000000000	-0.46724708973209
27.396000000000	-0.46763649501227
27.398000000000	-0.46802316387028
27.400000000000	-0.46840707760897
27.402000000000	-0.46878821768583
27.404000000000	-0.46916656571294
27.406000000000	-0.46954210345672
27.408000000000	-0.46991481283788
27.410000000000	-0.47028467593127
27.412000000000	-0.47065167496570
27.414000000000	-0.47101579232387
27.416000000000	-0.47137701054221
27.418000000000	-0.47173531231073
27.420000000000	-0.47209068047293
27.422000000000	-0.47244309802563
27.424000000000	-0.47279254811887
27.426000000000	-0.47313901405576
27.428000000000	-0.47348247929238
27.430000000000	-0.47382292743763
27.432000000000	-0.47416034225312
27.434000000000	-0.47449470765303
27.436000000000	-0.47482600770400
27.438000000000	-0.47515422662501
27.440000000000	-0.47547934878724
27.442000000000	-0.47580135871398
27.444000000000	-0.47612024108047
27.446000000000	-0.47643598071382
27.448000000000	-0.47674856259288
27.450000000000	-0.47705797184811
27.452000000000	-0.47736419376150
27.454000000000	-0.47766721376641
27.456000000000	-0.47796701744750
27.458000000000	-0.47826359054058
27.460000000000	-0.47855691893255
27.462000000000	-0.47884698866123
27.464000000000	-0.47913378591532
27.466000000000	-0.47941729703421
27.468000000000	-0.47969750850797
27.470000000000	-0.47997440697719
27.472000000000	-0.48024797923286
27.474000000000	-0.48051821221633
27.476000000000	-0.48078509301916
27.478000000000	-0.48104860888303
27.480000000000	-0.48130874719968
27.482000000000	-0.48156549551076
27.484000000000	-0.48181884150777
27.486000000000	-0.48206877303198
27.488000000000	-0.48231527807427
27.490000000000	-0.48255834477515
27.492000000000	-0.48279796142456
27.494000000000	-0.48303411646187
27.496000000000	-0.48326679847572
27.498000000000	-0.48349599620402
27.500000000000	-0.48372169853379
27.502000000000	-0.48394389450112
27.504000000000	-0.48416257329110
27.506000000000	-0.48437772423770
27.508000000000	-0.48458933682374
27.510000000000	-0.48479740068079
27.512000000000	-0.48500190558910
27.514000000000	-0.48520284147754
27.516000000000	-0.48540019842351
27.518000000000	-0.48559396665289
27.520000000000	-0.48578413653999
27.522000000000	-0.48597069860744
27.524000000000	-0.48615364352616
27.526000000000	-0.48633296211530
27.528000000000	-0.48650864534217
27.530000000000	-0.48668068432217
27.532000000000	-0.48684907031877
27.534000000000	-0.48701379474343
27.536000000000	-0.48717484915556
27.538000000000	-0.48733222526246
27.540000000000	-0.48748591491926
27.542000000000	-0.48763591012891
27.544000000000	-0.48778220304212
27.546000000000	-0.48792478595729
27.548000000000	-0.48806365132050
27.550000000000	-0.48819879172546
27.552000000000	-0.48833019991349
27.554000000000	-0.48845786877343
27.556000000000	-0.48858179134169
27.558000000000	-0.48870196080214
27.560000000000	-0.48881837048614
27.562000000000	-0.48893101387245
27.564000000000	-0.48903988458729
27.566000000000	-0.48914497640421
27.568000000000	-0.48924628324418
27.570000000000	-0.48934379917546
27.572000000000	-0.48943751841368
27.574000000000	-0.48952743532175
27.576000000000	-0.48961354440990
27.578000000000	-0.48969584033562
27.580000000000	-0.48977431790369
27.582000000000	-0.48984897206616
27.584000000000	-0.48991979792232
27.586000000000	-0.48998679071873
27.588000000000	-0.49004994584921
27.590000000000	-0.49010925885480
27.592000000000	-0.49016472542385
27.594000000000	-0.49021634139193
27.596000000000	-0.49026410274188
27.598000000000	-0.49030800560383
27.600000000000	-0.49034804625520
27.602000000000	-0.49038422112068
27.604000000000	-0.49041652677229
27.606000000000	-0.49044495992939
27.608000000000	-0.49046951745868
27.610000000000	-0.49049019637422
27.612000000000	-0.49050699383748
27.614000000000	-0.49051990715732
27.616000000000	-0.49052893379009
27.618000000000	-0.49053407133958
27.620000000000	-0.49053531755709
27.622000000000	-0.49053267034148
27.624000000000	-0.49052612773917
27.626000000000	-0.49051568794420
27.628000000000	-0.49050134929826
27.630000000000	-0.49048311029076
27.632000000000	-0.49046096955883
27.634000000000	-0.49043492588739
27.636000000000	-0.49040497820922
27.638000000000	-0.49037112560498
27.640000000000	-0.49033336730326
27.642000000000	-0.49029170268067
27.644000000000	-0.49024613126187
27.646000000000	-0.49019665271963
27.648000000000	-0.49014326687493
27.650000000000	-0.49008597369697
27.652000000000	-0.49002477330327
27.654000000000	-0.48995966595971
27.656000000000	-0.48989065208068
27.658000000000	-0.48981773222903
27.660000000000	-0.48974090711626
27.662000000000	-0.48966017760253
27.664000000000	-0.48957554469676
27.666000000000	-0.48948700955674
27.668000000000	-0.48939457348915
27.670000000000	-0.48929823794971
27.672000000000	-0.48919800454324
27.674000000000	-0.48909387502377
27.676000000000	-0.48898585129459
27.678000000000	-0.48887393540841
27.680000000000	-0.48875812956741
27.682000000000	-0.48863843612336
27.684000000000	-0.48851485757772
27.686000000000	-0.48838739658174
27.688000000000	-0.48825605593658
27.690000000000	-0.48812083859341
27.692000000000	-0.48798174765352
27.694000000000	-0.48783878636845
27.696000000000	-0.48769195814009
27.698000000000	-0.48754126652079
27.700000000000	-0.48738671521354
27.702000000000	-0.48722830807199
27.704000000000	-0.48706604910068
27.706000000000	-0.48689994245510
27.708000000000	-0.48672999244187
27.710000000000	-0.48655620351882
27.712000000000	-0.48637858029516
27.714000000000	-0.48619712753160
27.716000000000	-0.48601185014054
27.718000000000	-0.48582275318611
27.720000000000	-0.48562984188441
27.722000000000	-0.48543312160361
27.724000000000	-0.48523259786413
27.726000000000	-0.48502827633873
27.728000000000	-0.48482016285274
27.730000000000	-0.48460826338416
27.732000000000	-0.48439258406384
27.734000000000	-0.48417313117564
27.736000000000	-0.48394991115657
27.738000000000	-0.48372293059700
27.740000000000	-0.48349219624078
27.742000000000	-0.48325771498545
27.744000000000	-0.48301949388235
27.746000000000	-0.48277754013687
27.748000000000	-0.48253186110857
27.750000000000	-0.48228246431140
27.752000000000	-0.48202935741381
27.754000000000	-0.48177254823904
27.756000000000	-0.48151204476518
27.758000000000	-0.48124785512548
27.760000000000	-0.48097998760843
27.762000000000	-0.48070845065804
27.764000000000	-0.48043325287397
27.766000000000	-0.48015440301176
27.768000000000	-0.47987190998301
27.770000000000	-0.47958578285560
27.772000000000	-0.47929603085387
27.774000000000	-0.47900266335884
27.776000000000	-0.47870568990840
27.778000000000	-0.47840512019755
27.780000000000	-0.47810096407859
27.782000000000	-0.47779323156131
27.784000000000	-0.47748193281324
27.786000000000	-0.47716707815988
27.788000000000	-0.47684867808486
27.790000000000	-0.47652674323023
27.792000000000	-0.47620128439663
27.794000000000	-0.47587231254355
27.796000000000	-0.47553983878953
27.798000000000	-0.47520387441244
27.800000000000	-0.47486443084964
27.802000000000	-0.47452151969826
27.804000000000	-0.47417515271546
27.806000000000	-0.47382534181860
27.808000000000	-0.47347209908554
27.810000000000	-0.47311543675484
27.812000000000	-0.47275536722605
27.814000000000	-0.47239190305992
27.816000000000	-0.47202505697865
27.818000000000	-0.47165484186617
27.820000000000	-0.47128127076836
27.822000000000	-0.47090435689332
27.824000000000	-0.47052411361163
27.826000000000	-0.47014055445661
27.828000000000	-0.46975369312456
27.830000000000	-0.46936354347504
27.832000000000	-0.46897011953112
27.834000000000	-0.46857343547970
27.836000000000	-0.46817350567168
27.838000000000	-0.46777034462232
27.840000000000	-0.46736396701148
27.842000000000	-0.46695438768387
27.844000000000	-0.46654162164936
27.846000000000	-0.46612568408325
27.848000000000	-0.46570659032653
27.850000000000	-0.46528435588621
27.852000000000	-0.46485899643552
27.854000000000	-0.46443052781428
27.856000000000	-0.46399896602914
27.858000000000	-0.46356432725389
27.860000000000	-0.46312662782971
27.862000000000	-0.46268588426553
27.864000000000	-0.46224211323827
27.866000000000	-0.46179533159313
27.868000000000	-0.46134555634394
27.870000000000	-0.46089280467340
27.872000000000	-0.46043709393344
27.874000000000	-0.45997844164546
27.876000000000	-0.45951686550067
27.878000000000	-0.45905238336040
27.880000000000	-0.45858501325637
27.882000000000	-0.45811477339106
27.884000000000	-0.45764168213795
27.886000000000	-0.45716575804189
27.888000000000	-0.45668701981937
27.890000000000	-0.45620548635886
27.892000000000	-0.45572117672113
27.894000000000	-0.45523411013954
27.896000000000	-0.45474430602039
27.898000000000	-0.45425178394321
27.900000000000	-0.45375656366112
27.902000000000	-0.45325866510112
27.904000000000	-0.45275810836442
27.906000000000	-0.45225491372678
27.908000000000	-0.45174910163882
27.910000000000	-0.45124069272639
27.912000000000	-0.45072970779081
27.914000000000	-0.45021616780932
27.916000000000	-0.44970009393532
27.918000000000	-0.44918150749873
27.920000000000	-0.44866043000635
27.922000000000	-0.44813688314216
27.924000000000	-0.44761088876768
27.926000000000	-0.44708246892230
27.928000000000	-0.44655164582362
27.930000000000	-0.44601844186779
27.932000000000	-0.44548287962987
27.934000000000	-0.44494498186412
27.936000000000	-0.44440477150441
27.938000000000	-0.44386227166451
27.940000000000	-0.44331750563848
27.942000000000	-0.44277049690099
27.944000000000	-0.44222126910765
27.946000000000	-0.44166984609540
27.948000000000	-0.44111625188286
27.950000000000	-0.44056051067060
27.952000000000	-0.44000264684162
27.954000000000	-0.43944268496157
27.956000000000	-0.43888064977920
27.958000000000	-0.43831656622666
27.960000000000	-0.43775045941988
27.962000000000	-0.43718235465891
27.964000000000	-0.43661227742826
27.966000000000	-0.43604025339731
27.968000000000	-0.43546630842059
27.970000000000	-0.43489046853821
27.972000000000	-0.43431275997615
27.974000000000	-0.43373320914668
27.976000000000	-0.43315184264866
27.978000000000	-0.43256868726795
27.980000000000	-0.43198376997772
27.982000000000	-0.43139711793886
27.984000000000	-0.43080875850028
27.986000000000	-0.43021871919933
27.988000000000	-0.42962702776212
27.990000000000	-0.42903371210389
27.992000000000	-0.42843880032937
27.994000000000	-0.42784232073314
27.996000000000	-0.42724430179999
27.998000000000	-0.42664477220529
28.000000000000	-0.42604376081534
28.002000000000	-0.42544129668770
28.004000000000	-0.42483740907164
28.006000000000	-0.42423212740839
28.008000000000	-0.42362548133158
28.010000000000	-0.42301750066756
28.012000000000	-0.42240821543576
28.014000000000	-0.42179765584910
28.016000000000	-0.42118585231426
28.018000000000	-0.42057283543212
28.020000000000	-0.41995863599806
28.022000000000	-0.41934328500238
28.024000000000	-0.41872681363058
28.026000000000	-0.41810925326379
28.028000000000	-0.41749063547908
28.030000000000	-0.41687099204982
28.032000000000	-0.41625035494606
28.034000000000	-0.41562875633487
28.036000000000	-0.41500622858068
28.038000000000	-0.41438280424567
28.040000000000	-0.41375851609005
28.042000000000	-0.41313339707252
28.044000000000	-0.41250748035052
28.046000000000	-0.41188079928063
28.048000000000	-0.41125338741890
28.050000000000	-0.41062527852122
28.052000000000	-0.40999650654363
28.054000000000	-0.40936710564272
28.056000000000	-0.40873711017590
28.058000000000	-0.40810655470181
28.060000000000	-0.40747547398063
