#Parameters = {L=3.2; L_min=3.2; Nx=4; Ny=12; a=5.2011880517973; bend_r=0.15; cl1=0.5375; cl2=2.075; cl3=2.0375; cl4=0.3625; cl5=0; cl6=0; cl7=0; cl8=0; cu=0.018; d=1.8; db_l=0.4; db_neck_l=1.536; db_w=1.05; eps_r=3.55; f0=27; f_W=1; f_c=28; fmax=32; fmin=22; gap_x=0.34025976432583; gap_y=0.2; grid_g=0.00027083493387229; grid_l=0.87497230754204; grid_w=0.43313893313808; h1=0.75870462188591; h2=0.25727377777767; l_1=0.24630884502918; l_2=0.24630884502918; l_3=0.24630884502918; l_4=0.57472063840142; l_5=0.24630884502918; l_6=0.24630884502918; l_7=0.24630884502918; l_8=0.65682358674448; line_gap=0.25; m_l=0.70382246122097; m_w=0.41568172580541; mic_w=0.16420589668612; mu_r=1; pitch_x=1.2152320718679; pitch_y=0.43340976807195; rx_slot1=-1.8; rx_slot2=1.8; s_center=0.24630884502918; sigma_cu=58000000; slot_dumbbell_l=0.2; slot_dumbbell_w=0.604; slot_end_r=0.15; slot_l=2.336; slot_w=0.5; tanD=0.0027; total_stack_h=2.1219567993272; total_x=4.5206685231456; total_y=5.2006463819296; ttdA_x0=-1.8; ttdA_x1=-2.3375; ttdA_x2=-2.3375; ttdA_x3=-0.3; ttdA_x4=-0.3; ttdA_y0=0; ttdA_y1=0; ttdA_y2=-2.075; ttdA_y3=-2.075; ttdA_y4=-1.7125; ttdA_z=1.0609783996636; ttd_w=0.16420589668612; ttd_x1=-1.8; ttd_x2=-1.8; ttd_x3=0.275; ttd_x4=0.275; ttd_x5=-0.0875; ttd_xc=-1.8; ttd_y1=-1.168; ttd_y2=-0.6305; ttd_y3=-0.6305; ttd_y4=1.407; ttd_y5=1.407; ttd_yc=0; ttd_zmax=1.0699783996636; ttd_zmid=1.0609783996636; ttd_zmin=1.0519783996636; tx_Nx=12; tx_Ny=4; tx_gap_y=0.34025976432583; tx_pitch_x=0.43340976807195; tx_pitch_y=1.2152320718679; tx_slot1=-1.8; tx_slot2=1.8; x_last_max=2.4304641437357; x_start=-2.4304641437357; y_start=-2.6003231909648; z_L1=0; z_L10=2.1219567993272; z_L2=0.018; z_L3=0.77670462188591; z_L4=0.79470462188591; z_L5=1.0519783996636; z_L6=1.0699783996636; z_L7=1.3272521774413; z_L8=1.3452521774413; z_L9=2.1039567993272; z_air_bot=-3; z_air_top=5.1219567993272}
#"Frequency / GHz"	"SZmax(1),Zmin(2) (278) [Magnitude / dB]"
#-----------------------------------------------------------
27.000000000000	-0.55582037068193
27.002000000000	-0.55323625249404
27.004000000000	-0.55066682228905
27.006000000000	-0.54811206342086
27.008000000000	-0.54557195901284
27.010000000000	-0.54304649195852
27.012000000000	-0.54053564492223
27.014000000000	-0.53803940033980
27.016000000000	-0.53555774041924
27.018000000000	-0.53309064714146
27.020000000000	-0.53063810226091
27.022000000000	-0.52820008730638
27.024000000000	-0.52577658358167
27.026000000000	-0.52336757216633
27.028000000000	-0.52097303391643
27.030000000000	-0.51859294946525
27.032000000000	-0.51622729922412
27.034000000000	-0.51387606338310
27.036000000000	-0.51153922191181
27.038000000000	-0.50921675456021
27.040000000000	-0.50690864085938
27.042000000000	-0.50461486012230
27.044000000000	-0.50233539144472
27.046000000000	-0.50007021370589
27.048000000000	-0.49781930556946
27.050000000000	-0.49558264548427
27.052000000000	-0.49336021168520
27.054000000000	-0.49115198219402
27.056000000000	-0.48895793482025
27.058000000000	-0.48677804716201
27.060000000000	-0.48461229660690
27.062000000000	-0.48246066033287
27.064000000000	-0.48032311530913
27.066000000000	-0.47819963829699
27.068000000000	-0.47609020585083
27.070000000000	-0.47399479431894
27.072000000000	-0.47191337984449
27.074000000000	-0.46984593836639
27.076000000000	-0.46779244562031
27.078000000000	-0.46575287713952
27.080000000000	-0.46372720825587
27.082000000000	-0.46171541410076
27.084000000000	-0.45971746960608
27.086000000000	-0.45773334950513
27.088000000000	-0.45576302833367
27.090000000000	-0.45380648043084
27.092000000000	-0.45186367994014
27.094000000000	-0.44993460081043
27.096000000000	-0.44801921679695
27.098000000000	-0.44611750146226
27.100000000000	-0.44422942817730
27.102000000000	-0.44235497012239
27.104000000000	-0.44049410028821
27.106000000000	-0.43864679147688
27.108000000000	-0.43681301630295
27.110000000000	-0.43499274719444
27.112000000000	-0.43318595639391
27.114000000000	-0.43139261595945
27.116000000000	-0.42961269776580
27.118000000000	-0.42784617350534
27.120000000000	-0.42609301468918
27.122000000000	-0.42435319264826
27.124000000000	-0.42262667853438
27.126000000000	-0.42091344332125
27.128000000000	-0.41921345780565
27.130000000000	-0.41752669260847
27.132000000000	-0.41585311817578
27.134000000000	-0.41419270477997
27.136000000000	-0.41254542252085
27.138000000000	-0.41091124132670
27.140000000000	-0.40929013095543
27.142000000000	-0.40768206099570
27.144000000000	-0.40608700086797
27.146000000000	-0.40450491982572
27.148000000000	-0.40293578695649
27.150000000000	-0.40137957118305
27.152000000000	-0.39983624126454
27.154000000000	-0.39830576579757
27.156000000000	-0.39678811321741
27.158000000000	-0.39528325179910
27.160000000000	-0.39379114965860
27.162000000000	-0.39231177475397
27.164000000000	-0.39084509488648
27.166000000000	-0.38939107770181
27.168000000000	-0.38794969069119
27.170000000000	-0.38652090119257
27.172000000000	-0.38510467639179
27.174000000000	-0.38370098332373
27.176000000000	-0.38230978887352
27.178000000000	-0.38093105977769
27.180000000000	-0.37956476262535
27.182000000000	-0.37821086385939
27.184000000000	-0.37686932977763
27.186000000000	-0.37554012653405
27.188000000000	-0.37422322013994
27.190000000000	-0.37291857646511
27.192000000000	-0.37162616123910
27.194000000000	-0.37034594005233
27.196000000000	-0.36907787835732
27.198000000000	-0.36782194146993
27.200000000000	-0.36657809457049
27.202000000000	-0.36534630270505
27.204000000000	-0.36412653078656
27.206000000000	-0.36291874359611
27.208000000000	-0.36172290578409
27.210000000000	-0.36053898187146
27.212000000000	-0.35936693625088
27.214000000000	-0.35820673318802
27.216000000000	-0.35705833682268
27.218000000000	-0.35592171117008
27.220000000000	-0.35479682012201
27.222000000000	-0.35368362744810
27.224000000000	-0.35258209679701
27.226000000000	-0.35149219169765
27.228000000000	-0.35041387556042
27.230000000000	-0.34934711167840
27.232000000000	-0.34829186322858
27.234000000000	-0.34724809327309
27.236000000000	-0.34621576476042
27.238000000000	-0.34519484052663
27.240000000000	-0.34418528329659
27.242000000000	-0.34318705568518
27.244000000000	-0.34220012019853
27.246000000000	-0.34122443923524
27.248000000000	-0.34025997508760
27.250000000000	-0.33930668994281
27.252000000000	-0.33836454588420
27.254000000000	-0.33743350489245
27.256000000000	-0.33651352884684
27.258000000000	-0.33560457952644
27.260000000000	-0.33470661861133
27.262000000000	-0.33381960768384
27.264000000000	-0.33294350822976
27.266000000000	-0.33207828163956
27.268000000000	-0.33122388920962
27.270000000000	-0.33038029214341
27.272000000000	-0.32954745155277
27.274000000000	-0.32872532845905
27.276000000000	-0.32791388379441
27.278000000000	-0.32711307840294
27.280000000000	-0.32632287304196
27.282000000000	-0.32554322838317
27.284000000000	-0.32477410501391
27.286000000000	-0.32401546343832
27.288000000000	-0.32326726407858
27.290000000000	-0.32252946727611
27.292000000000	-0.32180203329276
27.294000000000	-0.32108492231204
27.296000000000	-0.32037809444030
27.298000000000	-0.31968150970795
27.300000000000	-0.31899512807062
27.302000000000	-0.31831890941040
27.304000000000	-0.31765281353703
27.306000000000	-0.31699680018904
27.308000000000	-0.31635082903501
27.310000000000	-0.31571485967472
27.312000000000	-0.31508885164034
27.314000000000	-0.31447276439764
27.316000000000	-0.31386655734711
27.318000000000	-0.31327018982522
27.320000000000	-0.31268362110554
27.322000000000	-0.31210681039993
27.324000000000	-0.31153971685972
27.326000000000	-0.31098229957689
27.328000000000	-0.31043451758519
27.330000000000	-0.30989632986136
27.332000000000	-0.30936769532628
27.334000000000	-0.30884857284609
27.336000000000	-0.30833892123340
27.338000000000	-0.30783869924842
27.340000000000	-0.30734786560009
27.342000000000	-0.30686637894726
27.344000000000	-0.30639419789985
27.346000000000	-0.30593128101991
27.348000000000	-0.30547758682288
27.350000000000	-0.30503307377861
27.352000000000	-0.30459770031257
27.354000000000	-0.30417142480695
27.356000000000	-0.30375420560179
27.358000000000	-0.30334600099609
27.360000000000	-0.30294676924897
27.362000000000	-0.30255646858073
27.364000000000	-0.30217505717402
27.366000000000	-0.30180249317489
27.368000000000	-0.30143873469395
27.370000000000	-0.30108373980745
27.372000000000	-0.30073746655836
27.374000000000	-0.30039987295751
27.376000000000	-0.30007091698462
27.378000000000	-0.29975055658946
27.380000000000	-0.29943874969287
27.382000000000	-0.29913545418787
27.384000000000	-0.29884062794075
27.386000000000	-0.29855422879211
27.388000000000	-0.29827621455795
27.390000000000	-0.29800654303071
27.392000000000	-0.29774517198038
27.394000000000	-0.29749205915551
27.396000000000	-0.29724716228428
27.398000000000	-0.29701043907554
27.400000000000	-0.29678184721988
27.402000000000	-0.29656134439063
27.404000000000	-0.29634888824493
27.406000000000	-0.29614443642475
27.408000000000	-0.29594794655791
27.410000000000	-0.29575937625912
27.412000000000	-0.29557868313099
27.414000000000	-0.29540582476504
27.416000000000	-0.29524075874271
27.418000000000	-0.29508344263638
27.420000000000	-0.29493383401037
27.422000000000	-0.29479189042192
27.424000000000	-0.29465756942218
27.426000000000	-0.29453082855725
27.428000000000	-0.29441162536909
27.430000000000	-0.29429991739655
27.432000000000	-0.29419566217633
27.434000000000	-0.29409881724395
27.436000000000	-0.29400934013471
27.438000000000	-0.29392718838466
27.440000000000	-0.29385231953156
27.442000000000	-0.29378469111582
27.444000000000	-0.29372426068144
27.446000000000	-0.29367098577698
27.448000000000	-0.29362482395649
27.450000000000	-0.29358573278041
27.452000000000	-0.29355366981653
27.454000000000	-0.29352859264093
27.456000000000	-0.29351045883885
27.458000000000	-0.29349922600564
27.460000000000	-0.29349485174765
27.462000000000	-0.29349729368315
27.464000000000	-0.29350650944323
27.466000000000	-0.29352245667268
27.468000000000	-0.29354509303086
27.470000000000	-0.29357437619266
27.472000000000	-0.29361026384930
27.474000000000	-0.29365271370923
27.476000000000	-0.29370168349903
27.478000000000	-0.29375713096424
27.480000000000	-0.29381901387022
27.482000000000	-0.29388729000304
27.484000000000	-0.29396191717029
27.486000000000	-0.29404285320194
27.488000000000	-0.29413005595121
27.490000000000	-0.29422348329534
27.492000000000	-0.29432309313649
27.494000000000	-0.29442884340252
27.496000000000	-0.29454069204782
27.498000000000	-0.29465859705415
27.500000000000	-0.29478251643141
27.502000000000	-0.29491240821848
27.504000000000	-0.29504823048399
27.506000000000	-0.29518994132716
27.508000000000	-0.29533749887855
27.510000000000	-0.29549086130083
27.512000000000	-0.29564998678964
27.514000000000	-0.29581483357427
27.516000000000	-0.29598535991849
27.518000000000	-0.29616152412131
27.520000000000	-0.29634328451772
27.522000000000	-0.29653059947944
27.524000000000	-0.29672342741571
27.526000000000	-0.29692172677400
27.528000000000	-0.29712545604075
27.530000000000	-0.29733457374213
27.532000000000	-0.29754903844475
27.534000000000	-0.29776880875639
27.536000000000	-0.29799384332672
27.538000000000	-0.29822410084801
27.540000000000	-0.29845954005586
27.542000000000	-0.29870011972989
27.544000000000	-0.29894579869441
27.546000000000	-0.29919653581918
27.548000000000	-0.29945229002006
27.550000000000	-0.29971302025968
27.552000000000	-0.29997868554817
27.554000000000	-0.30024924494378
27.556000000000	-0.30052465755359
27.558000000000	-0.30080488253416
27.560000000000	-0.30108987909218
27.562000000000	-0.30137960648516
27.564000000000	-0.30167402402203
27.566000000000	-0.30197309106384
27.568000000000	-0.30227676702434
27.570000000000	-0.30258501137067
27.572000000000	-0.30289778362398
27.574000000000	-0.30321504336002
27.576000000000	-0.30353675020980
27.578000000000	-0.30386286386019
27.580000000000	-0.30419334405453
27.582000000000	-0.30452815059325
27.584000000000	-0.30486724333446
27.586000000000	-0.30521058219453
27.588000000000	-0.30555812714872
27.590000000000	-0.30590983823174
27.592000000000	-0.30626567553835
27.594000000000	-0.30662559922392
27.596000000000	-0.30698956950500
27.598000000000	-0.30735754665992
27.600000000000	-0.30772949102933
27.602000000000	-0.30810536301673
27.604000000000	-0.30848512308911
27.606000000000	-0.30886873177739
27.608000000000	-0.30925614967706
27.610000000000	-0.30964733744867
27.612000000000	-0.31004225581835
27.614000000000	-0.31044086557841
27.616000000000	-0.31084312758779
27.618000000000	-0.31124900277263
27.620000000000	-0.31165845212677
27.622000000000	-0.31207143671225
27.624000000000	-0.31248791765987
27.626000000000	-0.31290785616961
27.628000000000	-0.31333121351120
27.630000000000	-0.31375795102461
27.632000000000	-0.31418803012049
27.634000000000	-0.31462141228070
27.636000000000	-0.31505805905877
27.638000000000	-0.31549793208041
27.640000000000	-0.31594099304393
27.642000000000	-0.31638720372075
27.644000000000	-0.31683652595586
27.646000000000	-0.31728892166826
27.648000000000	-0.31774435285143
27.650000000000	-0.31820278157378
27.652000000000	-0.31866416997909
27.654000000000	-0.31912848028697
27.656000000000	-0.31959567479327
27.658000000000	-0.32006571587054
27.660000000000	-0.32053856596847
27.662000000000	-0.32101418761427
27.664000000000	-0.32149254341313
27.666000000000	-0.32197359604865
27.668000000000	-0.32245730828319
27.670000000000	-0.32294364295836
27.672000000000	-0.32343256299538
27.674000000000	-0.32392403139548
27.676000000000	-0.32441801124033
27.678000000000	-0.32491446569238
27.680000000000	-0.32541335799532
27.682000000000	-0.32591465147441
27.684000000000	-0.32641830953689
27.686000000000	-0.32692429567234
27.688000000000	-0.32743257345308
27.690000000000	-0.32794310653453
27.692000000000	-0.32845585865556
27.694000000000	-0.32897079363888
27.696000000000	-0.32948787539138
27.698000000000	-0.33000706790450
27.700000000000	-0.33052833525457
27.702000000000	-0.33105164160319
27.704000000000	-0.33157695119753
27.706000000000	-0.33210422837069
27.708000000000	-0.33263343754205
27.710000000000	-0.33316454321761
27.712000000000	-0.33369750999028
27.714000000000	-0.33423230254027
27.716000000000	-0.33476888563534
27.718000000000	-0.33530722413120
27.720000000000	-0.33584728297175
27.722000000000	-0.33638902718947
27.724000000000	-0.33693242190567
27.726000000000	-0.33747743233084
27.728000000000	-0.33802402376490
27.730000000000	-0.33857216159758
27.732000000000	-0.33912181130865
27.734000000000	-0.33967293846824
27.736000000000	-0.34022550873714
27.738000000000	-0.34077948786707
27.740000000000	-0.34133484170098
27.742000000000	-0.34189153617332
27.744000000000	-0.34244953731033
27.746000000000	-0.34300881123031
27.748000000000	-0.34356932414390
27.750000000000	-0.34413104235434
27.752000000000	-0.34469393225774
27.754000000000	-0.34525796034335
27.756000000000	-0.34582309319382
27.758000000000	-0.34638929748545
27.760000000000	-0.34695653998846
27.762000000000	-0.34752478756722
27.764000000000	-0.34809400718054
27.766000000000	-0.34866416588187
27.768000000000	-0.34923523081958
27.770000000000	-0.34980716923720
27.772000000000	-0.35037994847362
27.774000000000	-0.35095353596339
27.776000000000	-0.35152789923689
27.778000000000	-0.35210300592062
27.780000000000	-0.35267882373738
27.782000000000	-0.35325532050654
27.784000000000	-0.35383246414423
27.786000000000	-0.35441022266356
27.788000000000	-0.35498856417489
27.790000000000	-0.35556745688599
27.792000000000	-0.35614686910228
27.794000000000	-0.35672676922703
27.796000000000	-0.35730712576160
27.798000000000	-0.35788790730562
27.800000000000	-0.35846908255718
27.802000000000	-0.35905062031309
27.804000000000	-0.35963248946904
27.806000000000	-0.36021465901978
27.808000000000	-0.36079709805939
27.810000000000	-0.36137977578139
27.812000000000	-0.36196266147900
27.814000000000	-0.36254572454529
27.816000000000	-0.36312893447339
27.818000000000	-0.36371226085667
27.820000000000	-0.36429567338892
27.822000000000	-0.36487914186455
27.824000000000	-0.36546263617875
27.826000000000	-0.36604612632769
27.828000000000	-0.36662958240869
27.830000000000	-0.36721297462039
27.832000000000	-0.36779627326292
27.834000000000	-0.36837944873812
27.836000000000	-0.36896247154962
27.838000000000	-0.36954531230312
27.840000000000	-0.37012794170645
27.842000000000	-0.37071033056984
27.844000000000	-0.37129244980598
27.846000000000	-0.37187427043028
27.848000000000	-0.37245576356098
27.850000000000	-0.37303690041929
27.852000000000	-0.37361765232961
27.854000000000	-0.37419799071965
27.856000000000	-0.37477788712058
27.858000000000	-0.37535731316721
27.860000000000	-0.37593624059814
27.862000000000	-0.37651464125588
27.864000000000	-0.37709248708704
27.866000000000	-0.37766975014246
27.868000000000	-0.37824640257737
27.870000000000	-0.37882241665154
27.872000000000	-0.37939776472940
27.874000000000	-0.37997241928022
27.876000000000	-0.38054635287823
27.878000000000	-0.38111953820279
27.880000000000	-0.38169194803850
27.882000000000	-0.38226355527536
27.884000000000	-0.38283433290892
27.886000000000	-0.38340425404041
27.888000000000	-0.38397329187685
27.890000000000	-0.38454141973126
27.892000000000	-0.38510861102272
27.894000000000	-0.38567483927656
27.896000000000	-0.38624007812447
27.898000000000	-0.38680430130465
27.900000000000	-0.38736748266194
27.902000000000	-0.38792959614794
27.904000000000	-0.38849061582117
27.906000000000	-0.38905051584717
27.908000000000	-0.38960927049868
27.910000000000	-0.39016685415573
27.912000000000	-0.39072324130577
27.914000000000	-0.39127840654385
27.916000000000	-0.39183232457268
27.918000000000	-0.39238497020284
27.920000000000	-0.39293631835284
27.922000000000	-0.39348634404928
27.924000000000	-0.39403502242700
27.926000000000	-0.39458232872915
27.928000000000	-0.39512823830739
27.930000000000	-0.39567272662198
27.932000000000	-0.39621576924189
27.934000000000	-0.39675734184499
27.936000000000	-0.39729742021812
27.938000000000	-0.39783598025723
27.940000000000	-0.39837299796755
27.942000000000	-0.39890844946366
27.944000000000	-0.39944231096967
27.946000000000	-0.39997455881929
27.948000000000	-0.40050516945603
27.950000000000	-0.40103411943328
27.952000000000	-0.40156138541446
27.954000000000	-0.40208694417311
27.956000000000	-0.40261077259309
27.958000000000	-0.40313284766865
27.960000000000	-0.40365314650459
27.962000000000	-0.40417164631637
27.964000000000	-0.40468832443028
27.966000000000	-0.40520315828350
27.968000000000	-0.40571612542433
27.970000000000	-0.40622720351221
27.972000000000	-0.40673637031796
27.974000000000	-0.40724360372384
27.976000000000	-0.40774888172372
27.978000000000	-0.40825218242317
27.980000000000	-0.40875348403967
27.982000000000	-0.40925276490269
27.984000000000	-0.40975000345381
27.986000000000	-0.41024517824693
27.988000000000	-0.41073826794834
27.990000000000	-0.41122925133688
27.992000000000	-0.41171810730409
27.994000000000	-0.41220481485434
27.996000000000	-0.41268935310498
27.998000000000	-0.41317170128646
28.000000000000	-0.41365183874250
28.002000000000	-0.41412974493022
28.004000000000	-0.41460539942028
28.006000000000	-0.41507878189704
28.008000000000	-0.41554987215871
28.010000000000	-0.41601865011747
28.012000000000	-0.41648509579964
28.014000000000	-0.41694918934584
28.016000000000	-0.41741091101111
28.018000000000	-0.41787024116511
28.020000000000	-0.41832716029222
28.022000000000	-0.41878164899173
28.024000000000	-0.41923368797799
28.026000000000	-0.41968325808057
28.028000000000	-0.42013034024442
28.030000000000	-0.42057491553000
28.032000000000	-0.42101696511350
28.034000000000	-0.42145647028696
28.036000000000	-0.42189341245844
28.038000000000	-0.42232777315221
28.040000000000	-0.42275953400890
28.042000000000	-0.42318867678565
28.044000000000	-0.42361518335635
28.046000000000	-0.42403903571172
28.048000000000	-0.42446021595957
28.050000000000	-0.42487870632491
28.052000000000	-0.42529448915018
28.054000000000	-0.42570754689541
28.056000000000	-0.42611786213838
